# E (eV)  dosup(E)   dosdw(E)  pdosup(E)  pdosdw(E)
-20.000  0.117E+00  0.117E+00  0.114E+00  0.114E+00
-19.995  0.122E+00  0.122E+00  0.120E+00  0.120E+00
-19.990  0.127E+00  0.127E+00  0.125E+00  0.125E+00
-19.985  0.133E+00  0.133E+00  0.130E+00  0.130E+00
-19.980  0.138E+00  0.138E+00  0.136E+00  0.136E+00
-19.975  0.144E+00  0.144E+00  0.141E+00  0.141E+00
-19.970  0.149E+00  0.149E+00  0.146E+00  0.146E+00
-19.965  0.155E+00  0.155E+00  0.152E+00  0.152E+00
-19.960  0.160E+00  0.160E+00  0.157E+00  0.157E+00
-19.955  0.166E+00  0.166E+00  0.163E+00  0.163E+00
-19.950  0.171E+00  0.171E+00  0.168E+00  0.168E+00
-19.945  0.177E+00  0.177E+00  0.174E+00  0.174E+00
-19.940  0.182E+00  0.182E+00  0.179E+00  0.179E+00
-19.935  0.188E+00  0.188E+00  0.184E+00  0.184E+00
-19.930  0.193E+00  0.193E+00  0.189E+00  0.189E+00
-19.925  0.198E+00  0.198E+00  0.194E+00  0.194E+00
-19.920  0.203E+00  0.203E+00  0.200E+00  0.200E+00
-19.915  0.208E+00  0.208E+00  0.205E+00  0.205E+00
-19.910  0.213E+00  0.213E+00  0.209E+00  0.209E+00
-19.905  0.218E+00  0.218E+00  0.214E+00  0.214E+00
-19.900  0.223E+00  0.223E+00  0.219E+00  0.219E+00
-19.895  0.228E+00  0.228E+00  0.223E+00  0.223E+00
-19.890  0.232E+00  0.232E+00  0.228E+00  0.228E+00
-19.885  0.236E+00  0.236E+00  0.232E+00  0.232E+00
-19.880  0.241E+00  0.241E+00  0.236E+00  0.236E+00
-19.875  0.245E+00  0.245E+00  0.240E+00  0.240E+00
-19.870  0.249E+00  0.249E+00  0.244E+00  0.244E+00
-19.865  0.252E+00  0.252E+00  0.248E+00  0.248E+00
-19.860  0.256E+00  0.256E+00  0.251E+00  0.251E+00
-19.855  0.260E+00  0.260E+00  0.255E+00  0.255E+00
-19.850  0.263E+00  0.263E+00  0.258E+00  0.258E+00
-19.845  0.266E+00  0.266E+00  0.261E+00  0.261E+00
-19.840  0.269E+00  0.269E+00  0.264E+00  0.264E+00
-19.835  0.272E+00  0.272E+00  0.267E+00  0.267E+00
-19.830  0.275E+00  0.275E+00  0.270E+00  0.270E+00
-19.825  0.277E+00  0.277E+00  0.272E+00  0.272E+00
-19.820  0.280E+00  0.280E+00  0.275E+00  0.275E+00
-19.815  0.282E+00  0.282E+00  0.277E+00  0.277E+00
-19.810  0.284E+00  0.284E+00  0.279E+00  0.279E+00
-19.805  0.286E+00  0.286E+00  0.281E+00  0.281E+00
-19.800  0.288E+00  0.288E+00  0.283E+00  0.283E+00
-19.795  0.290E+00  0.290E+00  0.285E+00  0.285E+00
-19.790  0.292E+00  0.292E+00  0.287E+00  0.287E+00
-19.785  0.293E+00  0.293E+00  0.288E+00  0.288E+00
-19.780  0.295E+00  0.295E+00  0.289E+00  0.289E+00
-19.775  0.296E+00  0.296E+00  0.291E+00  0.291E+00
-19.770  0.297E+00  0.297E+00  0.292E+00  0.292E+00
-19.765  0.298E+00  0.298E+00  0.293E+00  0.293E+00
-19.760  0.300E+00  0.300E+00  0.294E+00  0.294E+00
-19.755  0.300E+00  0.300E+00  0.295E+00  0.295E+00
-19.750  0.301E+00  0.301E+00  0.296E+00  0.296E+00
-19.745  0.302E+00  0.302E+00  0.297E+00  0.297E+00
-19.740  0.303E+00  0.303E+00  0.297E+00  0.297E+00
-19.735  0.304E+00  0.304E+00  0.298E+00  0.298E+00
-19.730  0.304E+00  0.304E+00  0.299E+00  0.299E+00
-19.725  0.305E+00  0.305E+00  0.299E+00  0.299E+00
-19.720  0.305E+00  0.305E+00  0.300E+00  0.300E+00
-19.715  0.306E+00  0.306E+00  0.300E+00  0.300E+00
-19.710  0.306E+00  0.306E+00  0.300E+00  0.300E+00
-19.705  0.306E+00  0.306E+00  0.301E+00  0.301E+00
-19.700  0.307E+00  0.307E+00  0.301E+00  0.301E+00
-19.695  0.307E+00  0.307E+00  0.301E+00  0.301E+00
-19.690  0.307E+00  0.307E+00  0.302E+00  0.302E+00
-19.685  0.307E+00  0.307E+00  0.302E+00  0.302E+00
-19.680  0.308E+00  0.308E+00  0.302E+00  0.302E+00
-19.675  0.308E+00  0.308E+00  0.302E+00  0.302E+00
-19.670  0.308E+00  0.308E+00  0.302E+00  0.302E+00
-19.665  0.308E+00  0.308E+00  0.302E+00  0.302E+00
-19.660  0.308E+00  0.308E+00  0.303E+00  0.303E+00
-19.655  0.308E+00  0.308E+00  0.303E+00  0.303E+00
-19.650  0.308E+00  0.308E+00  0.303E+00  0.303E+00
-19.645  0.309E+00  0.309E+00  0.303E+00  0.303E+00
-19.640  0.309E+00  0.309E+00  0.303E+00  0.303E+00
-19.635  0.309E+00  0.309E+00  0.303E+00  0.303E+00
-19.630  0.309E+00  0.309E+00  0.303E+00  0.303E+00
-19.625  0.309E+00  0.309E+00  0.303E+00  0.303E+00
-19.620  0.309E+00  0.309E+00  0.303E+00  0.303E+00
-19.615  0.309E+00  0.309E+00  0.303E+00  0.303E+00
-19.610  0.309E+00  0.309E+00  0.303E+00  0.303E+00
-19.605  0.309E+00  0.309E+00  0.303E+00  0.303E+00
-19.600  0.309E+00  0.309E+00  0.303E+00  0.303E+00
-19.595  0.309E+00  0.309E+00  0.303E+00  0.303E+00
-19.590  0.309E+00  0.309E+00  0.303E+00  0.303E+00
-19.585  0.309E+00  0.309E+00  0.303E+00  0.303E+00
-19.580  0.309E+00  0.309E+00  0.303E+00  0.303E+00
-19.575  0.309E+00  0.309E+00  0.303E+00  0.303E+00
-19.570  0.309E+00  0.309E+00  0.303E+00  0.303E+00
-19.565  0.309E+00  0.309E+00  0.304E+00  0.304E+00
-19.560  0.309E+00  0.309E+00  0.304E+00  0.304E+00
-19.555  0.309E+00  0.309E+00  0.304E+00  0.304E+00
-19.550  0.309E+00  0.309E+00  0.304E+00  0.304E+00
-19.545  0.309E+00  0.309E+00  0.304E+00  0.304E+00
-19.540  0.309E+00  0.309E+00  0.304E+00  0.304E+00
-19.535  0.309E+00  0.309E+00  0.304E+00  0.304E+00
-19.530  0.309E+00  0.309E+00  0.304E+00  0.304E+00
-19.525  0.309E+00  0.309E+00  0.304E+00  0.304E+00
-19.520  0.309E+00  0.309E+00  0.304E+00  0.304E+00
-19.515  0.309E+00  0.309E+00  0.304E+00  0.304E+00
-19.510  0.309E+00  0.309E+00  0.304E+00  0.304E+00
-19.505  0.309E+00  0.309E+00  0.304E+00  0.304E+00
-19.500  0.309E+00  0.309E+00  0.304E+00  0.304E+00
-19.495  0.309E+00  0.309E+00  0.304E+00  0.304E+00
-19.490  0.309E+00  0.309E+00  0.304E+00  0.304E+00
-19.485  0.309E+00  0.309E+00  0.304E+00  0.304E+00
-19.480  0.310E+00  0.310E+00  0.304E+00  0.304E+00
-19.475  0.310E+00  0.310E+00  0.304E+00  0.304E+00
-19.470  0.310E+00  0.310E+00  0.304E+00  0.304E+00
-19.465  0.310E+00  0.310E+00  0.304E+00  0.304E+00
-19.460  0.310E+00  0.310E+00  0.304E+00  0.304E+00
-19.455  0.310E+00  0.310E+00  0.304E+00  0.304E+00
-19.450  0.310E+00  0.310E+00  0.304E+00  0.304E+00
-19.445  0.310E+00  0.310E+00  0.304E+00  0.304E+00
-19.440  0.310E+00  0.310E+00  0.304E+00  0.304E+00
-19.435  0.310E+00  0.310E+00  0.304E+00  0.304E+00
-19.430  0.310E+00  0.310E+00  0.304E+00  0.304E+00
-19.425  0.310E+00  0.310E+00  0.304E+00  0.304E+00
-19.420  0.310E+00  0.310E+00  0.304E+00  0.304E+00
-19.415  0.310E+00  0.310E+00  0.304E+00  0.304E+00
-19.410  0.310E+00  0.310E+00  0.304E+00  0.304E+00
-19.405  0.310E+00  0.310E+00  0.304E+00  0.304E+00
-19.400  0.310E+00  0.310E+00  0.304E+00  0.304E+00
-19.395  0.310E+00  0.310E+00  0.304E+00  0.304E+00
-19.390  0.310E+00  0.310E+00  0.304E+00  0.304E+00
-19.385  0.310E+00  0.310E+00  0.304E+00  0.304E+00
-19.380  0.310E+00  0.310E+00  0.304E+00  0.304E+00
-19.375  0.310E+00  0.310E+00  0.304E+00  0.304E+00
-19.370  0.310E+00  0.310E+00  0.304E+00  0.304E+00
-19.365  0.310E+00  0.310E+00  0.304E+00  0.304E+00
-19.360  0.310E+00  0.310E+00  0.304E+00  0.304E+00
-19.355  0.310E+00  0.310E+00  0.304E+00  0.304E+00
-19.350  0.310E+00  0.310E+00  0.304E+00  0.304E+00
-19.345  0.310E+00  0.310E+00  0.304E+00  0.304E+00
-19.340  0.310E+00  0.310E+00  0.304E+00  0.304E+00
-19.335  0.310E+00  0.310E+00  0.304E+00  0.304E+00
-19.330  0.310E+00  0.310E+00  0.304E+00  0.304E+00
-19.325  0.310E+00  0.310E+00  0.304E+00  0.304E+00
-19.320  0.310E+00  0.310E+00  0.304E+00  0.304E+00
-19.315  0.310E+00  0.310E+00  0.304E+00  0.304E+00
-19.310  0.310E+00  0.310E+00  0.304E+00  0.304E+00
-19.305  0.310E+00  0.310E+00  0.304E+00  0.304E+00
-19.300  0.310E+00  0.310E+00  0.304E+00  0.304E+00
-19.295  0.310E+00  0.310E+00  0.304E+00  0.304E+00
-19.290  0.310E+00  0.310E+00  0.304E+00  0.304E+00
-19.285  0.310E+00  0.310E+00  0.304E+00  0.304E+00
-19.280  0.310E+00  0.310E+00  0.304E+00  0.304E+00
-19.275  0.310E+00  0.310E+00  0.304E+00  0.304E+00
-19.270  0.310E+00  0.310E+00  0.304E+00  0.304E+00
-19.265  0.310E+00  0.310E+00  0.304E+00  0.304E+00
-19.260  0.310E+00  0.310E+00  0.304E+00  0.304E+00
-19.255  0.310E+00  0.310E+00  0.304E+00  0.304E+00
-19.250  0.310E+00  0.310E+00  0.305E+00  0.305E+00
-19.245  0.310E+00  0.310E+00  0.305E+00  0.305E+00
-19.240  0.310E+00  0.310E+00  0.305E+00  0.305E+00
-19.235  0.310E+00  0.310E+00  0.305E+00  0.305E+00
-19.230  0.310E+00  0.310E+00  0.305E+00  0.305E+00
-19.225  0.310E+00  0.310E+00  0.305E+00  0.305E+00
-19.220  0.310E+00  0.310E+00  0.305E+00  0.305E+00
-19.215  0.310E+00  0.310E+00  0.305E+00  0.305E+00
-19.210  0.310E+00  0.310E+00  0.305E+00  0.305E+00
-19.205  0.310E+00  0.310E+00  0.305E+00  0.305E+00
-19.200  0.310E+00  0.310E+00  0.305E+00  0.305E+00
-19.195  0.311E+00  0.311E+00  0.305E+00  0.305E+00
-19.190  0.311E+00  0.311E+00  0.305E+00  0.305E+00
-19.185  0.311E+00  0.311E+00  0.305E+00  0.305E+00
-19.180  0.311E+00  0.311E+00  0.305E+00  0.305E+00
-19.175  0.311E+00  0.311E+00  0.305E+00  0.305E+00
-19.170  0.311E+00  0.311E+00  0.305E+00  0.305E+00
-19.165  0.311E+00  0.311E+00  0.305E+00  0.305E+00
-19.160  0.311E+00  0.311E+00  0.305E+00  0.305E+00
-19.155  0.311E+00  0.311E+00  0.305E+00  0.305E+00
-19.150  0.311E+00  0.311E+00  0.305E+00  0.305E+00
-19.145  0.311E+00  0.311E+00  0.305E+00  0.305E+00
-19.140  0.311E+00  0.311E+00  0.305E+00  0.305E+00
-19.135  0.311E+00  0.311E+00  0.305E+00  0.305E+00
-19.130  0.311E+00  0.311E+00  0.305E+00  0.305E+00
-19.125  0.311E+00  0.311E+00  0.305E+00  0.305E+00
-19.120  0.311E+00  0.311E+00  0.305E+00  0.305E+00
-19.115  0.311E+00  0.311E+00  0.305E+00  0.305E+00
-19.110  0.311E+00  0.311E+00  0.305E+00  0.305E+00
-19.105  0.311E+00  0.311E+00  0.305E+00  0.305E+00
-19.100  0.311E+00  0.311E+00  0.305E+00  0.305E+00
-19.095  0.311E+00  0.311E+00  0.305E+00  0.305E+00
-19.090  0.311E+00  0.311E+00  0.305E+00  0.305E+00
-19.085  0.311E+00  0.311E+00  0.305E+00  0.305E+00
-19.080  0.311E+00  0.311E+00  0.305E+00  0.305E+00
-19.075  0.311E+00  0.311E+00  0.305E+00  0.305E+00
-19.070  0.311E+00  0.311E+00  0.305E+00  0.305E+00
-19.065  0.311E+00  0.311E+00  0.305E+00  0.305E+00
-19.060  0.311E+00  0.311E+00  0.305E+00  0.305E+00
-19.055  0.311E+00  0.311E+00  0.305E+00  0.305E+00
-19.050  0.311E+00  0.311E+00  0.305E+00  0.305E+00
-19.045  0.311E+00  0.311E+00  0.305E+00  0.305E+00
-19.040  0.311E+00  0.311E+00  0.305E+00  0.305E+00
-19.035  0.311E+00  0.311E+00  0.305E+00  0.305E+00
-19.030  0.311E+00  0.311E+00  0.305E+00  0.305E+00
-19.025  0.311E+00  0.311E+00  0.305E+00  0.305E+00
-19.020  0.311E+00  0.311E+00  0.305E+00  0.305E+00
-19.015  0.311E+00  0.311E+00  0.305E+00  0.305E+00
-19.010  0.311E+00  0.311E+00  0.305E+00  0.305E+00
-19.005  0.311E+00  0.311E+00  0.305E+00  0.305E+00
-19.000  0.311E+00  0.311E+00  0.305E+00  0.305E+00
-18.995  0.311E+00  0.311E+00  0.305E+00  0.305E+00
-18.990  0.311E+00  0.311E+00  0.305E+00  0.305E+00
-18.985  0.311E+00  0.311E+00  0.305E+00  0.305E+00
-18.980  0.311E+00  0.311E+00  0.305E+00  0.305E+00
-18.975  0.311E+00  0.311E+00  0.305E+00  0.305E+00
-18.970  0.311E+00  0.311E+00  0.305E+00  0.305E+00
-18.965  0.311E+00  0.311E+00  0.305E+00  0.305E+00
-18.960  0.312E+00  0.312E+00  0.305E+00  0.305E+00
-18.955  0.312E+00  0.312E+00  0.306E+00  0.306E+00
-18.950  0.312E+00  0.312E+00  0.306E+00  0.306E+00
-18.945  0.312E+00  0.312E+00  0.306E+00  0.306E+00
-18.940  0.312E+00  0.312E+00  0.306E+00  0.306E+00
-18.935  0.312E+00  0.312E+00  0.306E+00  0.306E+00
-18.930  0.312E+00  0.312E+00  0.306E+00  0.306E+00
-18.925  0.312E+00  0.312E+00  0.306E+00  0.306E+00
-18.920  0.312E+00  0.312E+00  0.306E+00  0.306E+00
-18.915  0.312E+00  0.312E+00  0.306E+00  0.306E+00
-18.910  0.312E+00  0.312E+00  0.306E+00  0.306E+00
-18.905  0.312E+00  0.312E+00  0.306E+00  0.306E+00
-18.900  0.312E+00  0.312E+00  0.306E+00  0.306E+00
-18.895  0.312E+00  0.312E+00  0.306E+00  0.306E+00
-18.890  0.312E+00  0.312E+00  0.306E+00  0.306E+00
-18.885  0.312E+00  0.312E+00  0.306E+00  0.306E+00
-18.880  0.312E+00  0.312E+00  0.306E+00  0.306E+00
-18.875  0.312E+00  0.312E+00  0.306E+00  0.306E+00
-18.870  0.312E+00  0.312E+00  0.306E+00  0.306E+00
-18.865  0.312E+00  0.312E+00  0.306E+00  0.306E+00
-18.860  0.312E+00  0.312E+00  0.306E+00  0.306E+00
-18.855  0.312E+00  0.312E+00  0.306E+00  0.306E+00
-18.850  0.312E+00  0.312E+00  0.306E+00  0.306E+00
-18.845  0.312E+00  0.312E+00  0.306E+00  0.306E+00
-18.840  0.312E+00  0.312E+00  0.306E+00  0.306E+00
-18.835  0.312E+00  0.312E+00  0.306E+00  0.306E+00
-18.830  0.312E+00  0.312E+00  0.306E+00  0.306E+00
-18.825  0.312E+00  0.312E+00  0.306E+00  0.306E+00
-18.820  0.312E+00  0.312E+00  0.306E+00  0.306E+00
-18.815  0.312E+00  0.312E+00  0.306E+00  0.306E+00
-18.810  0.312E+00  0.312E+00  0.306E+00  0.306E+00
-18.805  0.312E+00  0.312E+00  0.306E+00  0.306E+00
-18.800  0.312E+00  0.312E+00  0.306E+00  0.306E+00
-18.795  0.312E+00  0.312E+00  0.306E+00  0.306E+00
-18.790  0.312E+00  0.312E+00  0.306E+00  0.306E+00
-18.785  0.312E+00  0.312E+00  0.306E+00  0.306E+00
-18.780  0.312E+00  0.312E+00  0.306E+00  0.306E+00
-18.775  0.312E+00  0.312E+00  0.306E+00  0.306E+00
-18.770  0.312E+00  0.312E+00  0.306E+00  0.306E+00
-18.765  0.312E+00  0.312E+00  0.306E+00  0.306E+00
-18.760  0.312E+00  0.312E+00  0.306E+00  0.306E+00
-18.755  0.312E+00  0.312E+00  0.306E+00  0.306E+00
-18.750  0.312E+00  0.312E+00  0.306E+00  0.306E+00
-18.745  0.312E+00  0.312E+00  0.306E+00  0.306E+00
-18.740  0.313E+00  0.313E+00  0.306E+00  0.306E+00
-18.735  0.313E+00  0.313E+00  0.306E+00  0.306E+00
-18.730  0.313E+00  0.313E+00  0.307E+00  0.307E+00
-18.725  0.313E+00  0.313E+00  0.307E+00  0.307E+00
-18.720  0.313E+00  0.313E+00  0.307E+00  0.307E+00
-18.715  0.313E+00  0.313E+00  0.307E+00  0.307E+00
-18.710  0.313E+00  0.313E+00  0.307E+00  0.307E+00
-18.705  0.313E+00  0.313E+00  0.307E+00  0.307E+00
-18.700  0.313E+00  0.313E+00  0.307E+00  0.307E+00
-18.695  0.313E+00  0.313E+00  0.307E+00  0.307E+00
-18.690  0.313E+00  0.313E+00  0.307E+00  0.307E+00
-18.685  0.313E+00  0.313E+00  0.307E+00  0.307E+00
-18.680  0.313E+00  0.313E+00  0.307E+00  0.307E+00
-18.675  0.313E+00  0.313E+00  0.307E+00  0.307E+00
-18.670  0.313E+00  0.313E+00  0.307E+00  0.307E+00
-18.665  0.313E+00  0.313E+00  0.307E+00  0.307E+00
-18.660  0.313E+00  0.313E+00  0.307E+00  0.307E+00
-18.655  0.313E+00  0.313E+00  0.307E+00  0.307E+00
-18.650  0.313E+00  0.313E+00  0.307E+00  0.307E+00
-18.645  0.313E+00  0.313E+00  0.307E+00  0.307E+00
-18.640  0.313E+00  0.313E+00  0.307E+00  0.307E+00
-18.635  0.313E+00  0.313E+00  0.307E+00  0.307E+00
-18.630  0.313E+00  0.313E+00  0.307E+00  0.307E+00
-18.625  0.313E+00  0.313E+00  0.307E+00  0.307E+00
-18.620  0.313E+00  0.313E+00  0.307E+00  0.307E+00
-18.615  0.313E+00  0.313E+00  0.307E+00  0.307E+00
-18.610  0.313E+00  0.313E+00  0.306E+00  0.306E+00
-18.605  0.313E+00  0.313E+00  0.306E+00  0.306E+00
-18.600  0.313E+00  0.313E+00  0.306E+00  0.306E+00
-18.595  0.313E+00  0.313E+00  0.306E+00  0.306E+00
-18.590  0.313E+00  0.313E+00  0.307E+00  0.307E+00
-18.585  0.313E+00  0.313E+00  0.307E+00  0.307E+00
-18.580  0.313E+00  0.313E+00  0.307E+00  0.307E+00
-18.575  0.313E+00  0.313E+00  0.307E+00  0.307E+00
-18.570  0.313E+00  0.313E+00  0.307E+00  0.307E+00
-18.565  0.313E+00  0.313E+00  0.307E+00  0.307E+00
-18.560  0.313E+00  0.313E+00  0.307E+00  0.307E+00
-18.555  0.313E+00  0.313E+00  0.307E+00  0.307E+00
-18.550  0.313E+00  0.313E+00  0.307E+00  0.307E+00
-18.545  0.313E+00  0.313E+00  0.307E+00  0.307E+00
-18.540  0.313E+00  0.313E+00  0.307E+00  0.307E+00
-18.535  0.313E+00  0.313E+00  0.307E+00  0.307E+00
-18.530  0.313E+00  0.313E+00  0.307E+00  0.307E+00
-18.525  0.314E+00  0.314E+00  0.307E+00  0.307E+00
-18.520  0.314E+00  0.314E+00  0.307E+00  0.307E+00
-18.515  0.314E+00  0.314E+00  0.307E+00  0.307E+00
-18.510  0.314E+00  0.314E+00  0.308E+00  0.308E+00
-18.505  0.314E+00  0.314E+00  0.308E+00  0.308E+00
-18.500  0.314E+00  0.314E+00  0.308E+00  0.308E+00
-18.495  0.314E+00  0.314E+00  0.308E+00  0.308E+00
-18.490  0.314E+00  0.314E+00  0.308E+00  0.308E+00
-18.485  0.314E+00  0.314E+00  0.308E+00  0.308E+00
-18.480  0.314E+00  0.314E+00  0.308E+00  0.308E+00
-18.475  0.314E+00  0.314E+00  0.308E+00  0.308E+00
-18.470  0.314E+00  0.314E+00  0.308E+00  0.308E+00
-18.465  0.314E+00  0.314E+00  0.308E+00  0.308E+00
-18.460  0.314E+00  0.314E+00  0.308E+00  0.308E+00
-18.455  0.314E+00  0.314E+00  0.308E+00  0.308E+00
-18.450  0.314E+00  0.314E+00  0.308E+00  0.308E+00
-18.445  0.314E+00  0.314E+00  0.308E+00  0.308E+00
-18.440  0.314E+00  0.314E+00  0.308E+00  0.308E+00
-18.435  0.314E+00  0.314E+00  0.308E+00  0.308E+00
-18.430  0.314E+00  0.314E+00  0.308E+00  0.308E+00
-18.425  0.314E+00  0.314E+00  0.308E+00  0.308E+00
-18.420  0.314E+00  0.314E+00  0.308E+00  0.308E+00
-18.415  0.314E+00  0.314E+00  0.308E+00  0.308E+00
-18.410  0.314E+00  0.314E+00  0.307E+00  0.307E+00
-18.405  0.314E+00  0.314E+00  0.307E+00  0.307E+00
-18.400  0.313E+00  0.313E+00  0.307E+00  0.307E+00
-18.395  0.313E+00  0.313E+00  0.307E+00  0.307E+00
-18.390  0.313E+00  0.313E+00  0.307E+00  0.307E+00
-18.385  0.313E+00  0.313E+00  0.307E+00  0.307E+00
-18.380  0.313E+00  0.313E+00  0.307E+00  0.307E+00
-18.375  0.313E+00  0.313E+00  0.307E+00  0.307E+00
-18.370  0.313E+00  0.313E+00  0.307E+00  0.307E+00
-18.365  0.313E+00  0.313E+00  0.307E+00  0.307E+00
-18.360  0.313E+00  0.313E+00  0.307E+00  0.307E+00
-18.355  0.313E+00  0.313E+00  0.307E+00  0.307E+00
-18.350  0.313E+00  0.313E+00  0.307E+00  0.307E+00
-18.345  0.313E+00  0.313E+00  0.307E+00  0.307E+00
-18.340  0.313E+00  0.313E+00  0.307E+00  0.307E+00
-18.335  0.314E+00  0.314E+00  0.307E+00  0.307E+00
-18.330  0.314E+00  0.314E+00  0.307E+00  0.307E+00
-18.325  0.314E+00  0.314E+00  0.308E+00  0.308E+00
-18.320  0.314E+00  0.314E+00  0.308E+00  0.308E+00
-18.315  0.314E+00  0.314E+00  0.308E+00  0.308E+00
-18.310  0.314E+00  0.314E+00  0.308E+00  0.308E+00
-18.305  0.314E+00  0.314E+00  0.308E+00  0.308E+00
-18.300  0.315E+00  0.315E+00  0.308E+00  0.308E+00
-18.295  0.315E+00  0.315E+00  0.309E+00  0.309E+00
-18.290  0.315E+00  0.315E+00  0.309E+00  0.309E+00
-18.285  0.315E+00  0.315E+00  0.309E+00  0.309E+00
-18.280  0.315E+00  0.315E+00  0.309E+00  0.309E+00
-18.275  0.315E+00  0.315E+00  0.309E+00  0.309E+00
-18.270  0.316E+00  0.316E+00  0.309E+00  0.309E+00
-18.265  0.316E+00  0.316E+00  0.309E+00  0.309E+00
-18.260  0.316E+00  0.316E+00  0.310E+00  0.310E+00
-18.255  0.316E+00  0.316E+00  0.310E+00  0.310E+00
-18.250  0.316E+00  0.316E+00  0.310E+00  0.310E+00
-18.245  0.316E+00  0.316E+00  0.310E+00  0.310E+00
-18.240  0.316E+00  0.316E+00  0.310E+00  0.310E+00
-18.235  0.316E+00  0.316E+00  0.310E+00  0.310E+00
-18.230  0.316E+00  0.316E+00  0.310E+00  0.310E+00
-18.225  0.316E+00  0.316E+00  0.310E+00  0.310E+00
-18.220  0.316E+00  0.316E+00  0.310E+00  0.310E+00
-18.215  0.316E+00  0.316E+00  0.310E+00  0.310E+00
-18.210  0.316E+00  0.316E+00  0.309E+00  0.309E+00
-18.205  0.316E+00  0.316E+00  0.309E+00  0.309E+00
-18.200  0.315E+00  0.315E+00  0.309E+00  0.309E+00
-18.195  0.315E+00  0.315E+00  0.309E+00  0.309E+00
-18.190  0.315E+00  0.315E+00  0.309E+00  0.309E+00
-18.185  0.315E+00  0.315E+00  0.309E+00  0.309E+00
-18.180  0.315E+00  0.315E+00  0.308E+00  0.308E+00
-18.175  0.314E+00  0.314E+00  0.308E+00  0.308E+00
-18.170  0.314E+00  0.314E+00  0.308E+00  0.308E+00
-18.165  0.314E+00  0.314E+00  0.308E+00  0.308E+00
-18.160  0.314E+00  0.314E+00  0.308E+00  0.308E+00
-18.155  0.314E+00  0.314E+00  0.308E+00  0.308E+00
-18.150  0.314E+00  0.314E+00  0.307E+00  0.307E+00
-18.145  0.314E+00  0.314E+00  0.307E+00  0.307E+00
-18.140  0.313E+00  0.313E+00  0.307E+00  0.307E+00
-18.135  0.313E+00  0.313E+00  0.307E+00  0.307E+00
-18.130  0.313E+00  0.313E+00  0.307E+00  0.307E+00
-18.125  0.313E+00  0.313E+00  0.307E+00  0.307E+00
-18.120  0.313E+00  0.313E+00  0.307E+00  0.307E+00
-18.115  0.314E+00  0.314E+00  0.307E+00  0.307E+00
-18.110  0.314E+00  0.314E+00  0.307E+00  0.307E+00
-18.105  0.314E+00  0.314E+00  0.308E+00  0.308E+00
-18.100  0.314E+00  0.314E+00  0.308E+00  0.308E+00
-18.095  0.314E+00  0.314E+00  0.308E+00  0.308E+00
-18.090  0.314E+00  0.314E+00  0.308E+00  0.308E+00
